# Energy [MeV], best_fit, best_fit-2*sigma, best_fit-sigma, best_fit+sigma, best_fit+2*sigma, staterr
-8.433000000000000496e-01 nan nan nan nan nan nan
-7.212000000000000632e-01 nan nan nan nan nan nan
-5.991000000000000769e-01 nan nan nan nan nan nan
-4.770000000000000351e-01 nan nan nan nan nan nan
-3.549000000000000488e-01 nan nan nan nan nan nan
-2.328000000000000069e-01 1.508181800000000017e+01 1.282005637488304650e+01 1.395093718744152333e+01 1.561851155383611811e+01 1.615520510767223783e+01 1.530040300000000020e+00
-1.107000000000000206e-01 2.268183300000000102e+01 1.972376807495666995e+01 2.120280053747833549e+01 2.345335494696655942e+01 2.422487689393311783e+01 1.971908500000000064e+00
1.139999999999996572e-02 3.615370200000000267e+01 3.215299452477490405e+01 3.415334826238745336e+01 3.734124034354140775e+01 3.852877868708281284e+01 2.745503199999999921e+00
1.334999999999999520e-01 4.864413499999999857e+01 4.423176095994346468e+01 4.643794797997173163e+01 5.018519271130444537e+01 5.172625042260889217e+01 3.747325399999999807e+00
2.555999999999999384e-01 6.660205799999999954e+01 6.174321489270892016e+01 6.417263644635445985e+01 6.863441893560570861e+01 7.066677987121141769e+01 4.865892900000000409e+00
3.777000000000000357e-01 7.799786400000000697e+01 7.319981981941911897e+01 7.559884190970956297e+01 8.028716053998358859e+01 8.257645707996717022e+01 5.732831000000000010e+00
4.997999999999999110e-01 1.128603600000000000e+02 1.062967705880175942e+02 1.095785652940087971e+02 1.160949210570489072e+02 1.193294821140978144e+02 8.038191799999999887e+00
6.219000000000000083e-01 1.532661999999999978e+02 1.447612011829556593e+02 1.490137005914778285e+02 1.575390179825126324e+02 1.618118359650252671e+02 9.146087599999999540e+00
7.439999999999998836e-01 1.927135000000000105e+02 1.825337188218405799e+02 1.876236094109202952e+02 1.979947635375590949e+02 2.032760270751181793e+02 1.109581099999999942e+01
8.660999999999999810e-01 2.612105399999999804e+02 2.477381245945624642e+02 2.544743322972812223e+02 2.701331785154596332e+02 2.790558170309192860e+02 1.347739900000000013e+01
9.881999999999998563e-01 3.209912100000000237e+02 3.047034614902044041e+02 3.128473357451022139e+02 3.359071148460182030e+02 3.508230196920363824e+02 1.676573399999999836e+01
1.110300000000000065e+00 3.707480800000000158e+02 3.522452774046021773e+02 3.614966787023010966e+02 3.926030955791956671e+02 4.144581111583913184e+02 1.666206599999999938e+01
1.232399999999999718e+00 4.510176099999999906e+02 4.288858565944029806e+02 4.399517332972014856e+02 4.833072376350137347e+02 5.155968652700274788e+02 2.410399100000000061e+01
1.354499999999999815e+00 5.787520799999999781e+02 5.507290681685760774e+02 5.647405740842880277e+02 6.275923688724449221e+02 6.764326577448898661e+02 2.516282700000000006e+01
1.476599999999999913e+00 7.390104999999999791e+02 7.035514556395540922e+02 7.212809778197770356e+02 8.109445791597721609e+02 8.828786583195443427e+02 3.208561699999999917e+01
1.598700000000000010e+00 9.141411699999999882e+02 8.706796424861325931e+02 8.924104062430662907e+02 1.015102160815686716e+03 1.116063151631373330e+03 3.749654400000000010e+01
1.720799999999999663e+00 1.280547000000000025e+03 1.220227324529733778e+03 1.250387162264866902e+03 1.438958201429739120e+03 1.597369402859478214e+03 4.316692700000000116e+01
1.842899999999999761e+00 1.568235500000000002e+03 1.495049557144991695e+03 1.531642528572495848e+03 1.783283592866919435e+03 1.998331685733838867e+03 7.082265499999999747e+01
1.964999999999999858e+00 2.033940299999999979e+03 1.935142388390994029e+03 1.984541344195497004e+03 2.340495028092954726e+03 2.647049756185909246e+03 8.133824199999999394e+01
2.087099999999999955e+00 2.537399699999999939e+03 2.408705103381280423e+03 2.473052401690640181e+03 2.954742129685185773e+03 3.372084559370371608e+03 8.851588399999999979e+01
2.209200000000000053e+00 3.179263399999999820e+03 3.010182612708254055e+03 3.094723006354126937e+03 3.746437232891370513e+03 4.313611065782741207e+03 1.328996099999999956e+02
2.331299999999999706e+00 3.762457499999999982e+03 3.548684105300174906e+03 3.655570802650087444e+03 4.486676753945356722e+03 5.210896007890713008e+03 1.523867799999999875e+02
2.453399999999999803e+00 5.038757300000000214e+03 4.733682113806799862e+03 4.886219706903400038e+03 6.080480239883877402e+03 7.122203179767754591e+03 2.097134900000000073e+02
2.575499999999999901e+00 5.979553700000000390e+03 5.595274253247685920e+03 5.787413976623843155e+03 7.302048176302646425e+03 8.624542652605292460e+03 2.894382600000000139e+02
2.697599999999999998e+00 8.217811499999999796e+03 7.659175496414927693e+03 7.938493498207463745e+03 1.015290093506684752e+04 1.208799037013369525e+04 4.409821499999999901e+02
2.819699999999999651e+00 1.048443900000000031e+04 9.732874295454070307e+03 1.010865664772703531e+04 1.306627664200428990e+04 1.564811428400857949e+04 6.061792000000000371e+02
2.941799999999999748e+00 1.302900799999999981e+04 1.204683965992873527e+04 1.253792382996436754e+04 1.640058504445229482e+04 1.977216208890458802e+04 6.429507399999999961e+02
3.063899999999999846e+00 1.430684000000000015e+04 1.317554955678627084e+04 1.374119477839313549e+04 1.819561637670161144e+04 2.208439275340322274e+04 9.704940800000000536e+02
3.185999999999999943e+00 1.827527000000000044e+04 1.676286920885416112e+04 1.751906960442708078e+04 2.347292171185398183e+04 2.867057342370796323e+04 1.099225799999999936e+03
3.308099999999999596e+00 2.347940799999999945e+04 2.145001530382961573e+04 2.246471165191480759e+04 3.049059004648139307e+04 3.750177209296278306e+04 1.636711199999999963e+03
3.430200000000000138e+00 3.345329699999999866e+04 3.043911354217572807e+04 3.194620527108786337e+04 4.383908521740104334e+04 5.422487343480208801e+04 2.538609100000000126e+03
3.552299999999999791e+00 4.243739800000000105e+04 3.845833441352131194e+04 4.044786620676065650e+04 5.514695215984748938e+04 6.785650631969497772e+04 3.631890899999999874e+03
3.674399999999999444e+00 5.339342199999999866e+04 4.819200780025874701e+04 5.079271490012937284e+04 6.656007101479743142e+04 7.972672002959487145e+04 4.750377900000000409e+03
3.796499999999999986e+00 5.863140200000000186e+04 5.270582098460088309e+04 5.566861149230044248e+04 7.392149699482521100e+04 8.921159198965042015e+04 6.580022899999999936e+03
3.918599999999999639e+00 7.382761699999999837e+04 6.609755655880807899e+04 6.996258677940403868e+04 8.896657762334503059e+04 1.041055382466900628e+05 8.350781199999999444e+03
4.040700000000000180e+00 7.410496099999999569e+04 6.607672076163285237e+04 7.009084088081642403e+04 8.684987298263999401e+04 9.959478496527999232e+04 1.041295900000000074e+04
4.162799999999999834e+00 1.144998500000000058e+05 1.016803665423297498e+05 1.080901082711648778e+05 1.337732545120564464e+05 1.530466590241128870e+05 1.680125000000000000e+04
4.284899999999999487e+00 1.286861900000000023e+05 1.138126868052682548e+05 1.212494384026341286e+05 1.456194280237043276e+05 1.625526660474086530e+05 2.041190199999999822e+04
4.407000000000000028e+00 1.192786100000000006e+05 1.050619724543494958e+05 1.121702912271747482e+05 1.360548993153408228e+05 1.528311886306816596e+05 3.306763300000000163e+04
4.529099999999999682e+00 1.738601900000000023e+05 1.525113195139114396e+05 1.631857547569557209e+05 1.943697339728622464e+05 2.148792779457244906e+05 5.094553899999999703e+04
4.651200000000000223e+00 1.736751199999999953e+05 1.517242262797985459e+05 1.626996731398992706e+05 1.945456666844863794e+05 2.154162133689727634e+05 1.168968399999999965e+05
4.773299999999999876e+00 nan nan nan nan nan nan
4.895399999999999530e+00 nan nan nan nan nan nan
5.017500000000000071e+00 nan nan nan nan nan nan
5.139599999999999724e+00 nan nan nan nan nan nan
5.261700000000000266e+00 nan nan nan nan nan nan
5.383799999999999919e+00 nan nan nan nan nan nan
5.505899999999999572e+00 nan nan nan nan nan nan
5.628000000000000114e+00 nan nan nan nan nan nan
5.750099999999999767e+00 nan nan nan nan nan nan
5.872199999999999420e+00 nan nan nan nan nan nan
5.994299999999999962e+00 nan nan nan nan nan nan
6.116399999999999615e+00 nan nan nan nan nan nan
