# Energy [MeV], best_fit, best_fit-2*sigma, best_fit-sigma, best_fit+sigma, best_fit+2*sigma, staterr
-8.433000000000000496e-01 nan nan nan nan nan nan
-7.212000000000000632e-01 nan nan nan nan nan nan
-5.991000000000000769e-01 nan nan nan nan nan nan
-4.770000000000000351e-01 nan nan nan nan nan nan
-3.549000000000000488e-01 nan nan nan nan nan nan
-2.328000000000000069e-01 1.522959299999999949e+01 1.423764490702595786e+01 1.473361895351297868e+01 1.552064263951728940e+01 1.581169227903457930e+01 8.128186499999999759e-01
-1.107000000000000206e-01 2.275141500000000150e+01 2.147870330143968687e+01 2.211505915071984418e+01 2.316080926389794215e+01 2.357020352779588279e+01 1.267660400000000021e+00
1.139999999999996572e-02 3.748254800000000131e+01 3.570272137838392013e+01 3.659263468919196072e+01 3.811521055754449350e+01 3.874787311508898568e+01 2.016276400000000191e+00
1.334999999999999520e-01 4.918935799999999858e+01 4.710669299617904926e+01 4.814802549808952392e+01 4.996481964787531638e+01 5.074028129575063417e+01 2.359425100000000164e+00
2.555999999999999384e-01 6.705251300000000469e+01 6.453333622240677414e+01 6.579292461120338942e+01 6.803496316699455804e+01 6.901741333398911138e+01 2.739053199999999855e+00
3.777000000000000357e-01 7.756918299999999533e+01 7.494101907070340474e+01 7.625510103535170003e+01 7.861950049152409292e+01 7.966981798304819051e+01 3.048597599999999908e+00
4.997999999999999110e-01 1.158307199999999995e+02 1.122097369546161048e+02 1.140202284773080521e+02 1.172781310163855437e+02 1.187255420327710880e+02 4.344461899999999765e+00
6.219000000000000083e-01 1.557820600000000013e+02 1.512441848725898126e+02 1.535131224362949069e+02 1.577866861920224721e+02 1.597913123840449430e+02 5.421363399999999722e+00
7.439999999999998836e-01 1.891589700000000107e+02 1.840524346701010927e+02 1.866057023350505517e+02 1.921639678010766659e+02 1.951689656021533210e+02 6.322561300000000273e+00
8.660999999999999810e-01 2.634035000000000082e+02 2.568552107119859329e+02 2.601293553559929705e+02 2.683915232744553236e+02 2.733795465489106391e+02 8.055439899999999653e+00
9.881999999999998563e-01 3.241972700000000032e+02 3.168236139060102232e+02 3.205104419530051132e+02 3.313295630217442636e+02 3.384618560434885239e+02 9.019061100000000053e+00
1.110300000000000065e+00 3.785791899999999828e+02 3.707278095939795435e+02 3.746534997969897631e+02 3.880710314378100065e+02 3.975628728756200303e+02 9.205541600000000102e+00
1.232399999999999718e+00 4.575285000000000082e+02 4.489584739216589924e+02 4.532434869608295003e+02 4.704099259884124535e+02 4.832913519768248989e+02 1.169148799999999966e+01
1.354499999999999815e+00 5.881544800000000350e+02 5.749683789748781919e+02 5.815614294874391135e+02 6.081059249688058799e+02 6.280573699376117247e+02 1.227352100000000057e+01
1.476599999999999913e+00 7.513285499999999502e+02 7.341110723774645521e+02 7.427198111887322511e+02 7.806288564458903920e+02 8.099291628917808339e+02 1.458737200000000023e+01
1.598700000000000010e+00 9.329419599999999946e+02 9.110998894305533895e+02 9.220209247152766920e+02 9.740394890127737426e+02 1.015137018025547491e+03 1.517330600000000018e+01
1.720799999999999663e+00 1.308444600000000037e+03 1.277162195533192289e+03 1.292803397766596163e+03 1.372824957561391102e+03 1.437205315122782167e+03 1.965318100000000001e+01
1.842899999999999761e+00 1.615849200000000110e+03 1.576415720043763031e+03 1.596132460021881570e+03 1.703723241061146609e+03 1.791597282122293109e+03 2.197301900000000074e+01
1.964999999999999858e+00 2.104042199999999866e+03 2.049828477100398231e+03 2.076935338550199049e+03 2.229419946061352675e+03 2.354797692122705485e+03 2.628795799999999971e+01
2.087099999999999955e+00 2.596856900000000223e+03 2.527361626038622944e+03 2.562109263019311584e+03 2.765190098855128326e+03 2.933523297710256429e+03 3.809411200000000264e+01
2.209200000000000053e+00 3.272899399999999787e+03 3.182063470156006133e+03 3.227481435078002960e+03 3.502275344184046389e+03 3.731651288368092992e+03 4.750267399999999895e+01
2.331299999999999706e+00 3.819560500000000047e+03 3.709760802736576352e+03 3.764660651368288200e+03 4.107446567592943211e+03 4.395332635185886829e+03 5.953902800000000184e+01
2.453399999999999803e+00 5.120692399999999907e+03 4.968416797606798355e+03 5.044554598803399131e+03 5.533873560591754540e+03 5.947054721183509173e+03 9.672340400000000216e+01
2.575499999999999901e+00 6.143363800000000083e+03 5.924093085659892495e+03 6.033728442829946289e+03 6.671899770231224466e+03 7.200435740462448848e+03 1.033777199999999965e+02
2.697599999999999998e+00 8.415127000000000407e+03 8.097323776487239229e+03 8.256225388243619818e+03 9.184318751701748624e+03 9.953510503403496841e+03 1.708369399999999985e+02
2.819699999999999651e+00 1.086365600000000086e+04 1.043090250734267647e+04 1.064727925367133867e+04 1.191534096716919157e+04 1.296702593433838229e+04 2.505400500000000079e+02
2.941799999999999748e+00 1.331119800000000032e+04 1.275342690718191807e+04 1.303231245359095919e+04 1.467209356381464931e+04 1.603298912762929831e+04 3.568652599999999779e+02
3.063899999999999846e+00 1.489943100000000049e+04 1.424435127423407175e+04 1.457189113711703612e+04 1.650403658966277726e+04 1.810864217932555403e+04 3.797129800000000159e+02
3.185999999999999943e+00 1.972737099999999919e+04 1.881937147824504063e+04 1.927337123912251991e+04 2.196018941886149696e+04 2.419300783772299474e+04 5.781067500000000337e+02
3.308099999999999596e+00 2.418839099999999962e+04 2.302526442910140395e+04 2.360682771455070178e+04 2.705954311432558825e+04 2.993069522865117688e+04 7.489112499999999955e+02
3.430200000000000138e+00 3.374543800000000192e+04 3.205340730113641621e+04 3.289942265056820906e+04 3.793816796500538476e+04 4.213089793001076760e+04 1.159676300000000083e+03
3.552299999999999791e+00 4.241882800000000134e+04 4.020483133699690370e+04 4.131182966849845252e+04 4.792568203226089099e+04 5.343253606452178065e+04 1.564396099999999933e+03
3.674399999999999444e+00 5.374882400000000052e+04 5.083330033097930573e+04 5.229106216548965313e+04 6.102779235680861166e+04 6.830676071361723007e+04 2.034862900000000081e+03
3.796499999999999986e+00 5.963130099999999948e+04 5.703210182231308863e+04 5.833170141115654405e+04 6.804289979277293605e+04 7.645449858554586535e+04 2.756574500000000171e+03
3.918599999999999639e+00 7.586422699999999895e+04 7.253390428495242668e+04 7.419906564247621282e+04 8.699537633391084091e+04 9.812652566782168287e+04 3.502045900000000074e+03
4.040700000000000180e+00 7.623080499999999302e+04 7.270827247814240400e+04 7.446953873907119851e+04 8.784983771625555528e+04 9.946887043251111754e+04 3.859101299999999810e+03
4.162799999999999834e+00 1.155465500000000029e+05 1.099409336033984873e+05 1.127437418016992451e+05 1.338195738066264603e+05 1.520925976132529322e+05 5.937921900000000278e+03
4.284899999999999487e+00 1.256475800000000017e+05 1.192626254461993376e+05 1.224551027230996697e+05 1.462412969689389283e+05 1.668350139378778404e+05 7.962095199999999750e+03
4.407000000000000028e+00 1.182358000000000029e+05 1.119554426274587895e+05 1.150956213137293962e+05 1.382988657652447291e+05 1.583619315304894699e+05 9.331531199999999444e+03
4.529099999999999682e+00 1.695470599999999977e+05 1.601518556284531951e+05 1.648494578142265964e+05 1.993032173150802264e+05 2.290593746301604551e+05 1.636653499999999985e+04
4.651200000000000223e+00 1.777314500000000116e+05 1.674748295140792616e+05 1.726031397570396366e+05 2.099633859001364908e+05 2.421953218002729700e+05 3.339540200000000186e+04
4.773299999999999876e+00 nan nan nan nan nan nan
4.895399999999999530e+00 nan nan nan nan nan nan
5.017500000000000071e+00 nan nan nan nan nan nan
5.139599999999999724e+00 nan nan nan nan nan nan
5.261700000000000266e+00 nan nan nan nan nan nan
5.383799999999999919e+00 nan nan nan nan nan nan
5.505899999999999572e+00 nan nan nan nan nan nan
5.628000000000000114e+00 nan nan nan nan nan nan
5.750099999999999767e+00 nan nan nan nan nan nan
5.872199999999999420e+00 nan nan nan nan nan nan
5.994299999999999962e+00 nan nan nan nan nan nan
6.116399999999999615e+00 nan nan nan nan nan nan
